Blood Volume pulse
64
0
0
0
0
0
0
0
0
0
0
0
0.01
0.01
0
-0.03
-0.05
-0.05
0
0.13
0.36
0.66
1.01
1.37
1.72
2.06
2.4
2.79
3.24
3.8
4.42
5.06
5.66
6.2
6.68
7.15
7.68
8.31
9.14
10.09
11.04
11.88
12.56
13.14
13.76
14.65
15.96
17.91
20.32
22.9
25.38
27.58
29.57
31.68
34.32
37.81
42.54
48.15
54.1
59.83
64.97
69.58
74.14
79.34
85.71
93.76
103
112.62
121.73
129.77
136.75
143.3
150.75
157.77
166.64
177.95
191.79
206.97
220.57
228.25
225.36
208.53
176.87
132.76
80.05
23.07
-34.94
-92.44
-149.16
-205.23
-260.37
-313.74
-363.86
-409.8
-450.87
-486.49
-515.78
-537.34
-549.42
-550.24
-538.69
-514.55
-479.02
-434.24
-382.83
-327.45
-270.32
-213.14
-157.15
-103.39
-52.72
-6.18
35.34
71.13
100.93
124.9
143.6
157.81
168.28
175.6
180.12
182.01
181.39
178.46
173.62
167.41
160.4
153.07
145.71
138.31
130.74
122.8
114.46
105.85
97.31
89.23
81.87
75.27
69.18
63.23
57.06
50.52
43.78
37.26
31.44
26.6
22.74
19.55
16.54
13.31
9.62
5.32
0.38
-5.08
-10.42
-14.38
-15.27
-11.71
-3.53
7.81
19.6
29.19
35.3
38.66
41.13
44.09
47.03
47.32
41.7
28.33
8.35
-14.12
-33.71
-46.26
-50.43
-47.99
-42.62
-38.11
-36.81
-39.42
-45.37
-53.41
-61.67
-67.34
-66.78
-56.41
-34.39
-1.94
36.23
73.48
103.69
123.59
133.54
136.83
137.67
139.11
141.64
142.99
139.31
126.96
104.2
72.53
36.3
1.35
-27.1
-46.56
-57.73
-63.38
-66.06
-66.31
-62.47
-52.59
-36.72
-18.19
-2.67
4.6
1.62
-9.23
-22.46
-32.18
-35.08
-31.71
-25.49
-20.41
-18.7
-20
-22.04
-22.38
-19.81
-14.95
-9.52
-5.32
-3.44
-3.61
-4.66
-5.15
-4.04
-1.15
2.83
6.74
9.48
10.64
10.55
10.11
10.35
11.91
14.84
18.49
21.92
24.18
24.85
24.12
22.61
21.08
20
19.33
18.39
16.22
11.73
4.52
-5.12
-16.28
-27.71
-38.46
-47.91
-56.06
-62.67
-68.44
-73.78
-79.27
-85.78
-93.94
-103.25
-111.19
-113.68
-106.1
-86.18
-55.6
-20.03
13.11
37.84
51.92
56.65
55.13
49.92
41.93
31.51
19.93
10.03
4.99
6.22
12.03
18.29
20.83
18.02
11.56
5.6
4.27
9.69
21.42
36.87
52.49
64.4
69.04
63.92
48.51
24.99
-2.53
-28.99
-50.17
-63.63
-68.78
-66.11
-56.5
-41.4
-22.92
-3.95
12.53
24.37
31.19
34.14
35.15
35.76
36.33
36.24
34.58
30.9
25.41
18.71
11.3
3.55
-4.16
-11.45
-17.51
-21.26
-21.7
-18.62
-13.37
-8.55
-6.93
-10.03
-17.99
-29.39
-41.7
-51.6
-55.37
-50.01
-35.07
-13.58
7.73
20.02
16.64
-2.85
-31.12
-55.96
-66.11
-56.49
-29.02
9.83
52.44
93.31
129.66
160.02
182.25
193.23
186.4
156.3
107.49
52.27
4.57
-26.89
-41.33
-43.65
-40.31
-36.12
-32.71
-29.55
-26.41
-24
-23.3
-24.41
-26.2
-27.1
-25.85
-21.97
-15.81
-8.9
-3.56
-2.23
-6.59
-16.7
-30.38
-42.91
-48.07
-39.68
-15.41
21.16
60.8
92.26
106.87
101.81
80.96
52.62
25.71
6.05
-4.48
-7.57
-6.44
-3.39
0.99
6.99
14.6
22.88
29.93
33.37
30.82
21.73
7.06
-10.97
-29.6
-46.4
-60.14
-70.85
-77.83
-83.66
-90.36
-98.88
-109.25
-120.85
-132.55
-142.3
-146.98
-142.86
-127.37
-100.26
-64.84
-27.55
4.6
27.02
39.38
45.16
49.21
54.46
60.74
65.09
63.57
53.99
37.28
17.37
-0.26
-10.29
-9.14
4.13
26.68
52.16
72.07
78.42
66.96
39.19
2.26
-33.57
-58.42
-66.11
-56.02
-32.68
-3.69
22.53
39.19
42.25
30.88
7.14
-24.52
-58.44
-88.42
-108.41
-113.79
-102.46
-76.07
-40.29
-3.97
23.47
34.58
26.84
3.87
-26.11
-53.5
-70.78
-74.84
-67.47
-53.13
-37.3
-25.41
-20.05
-20.56
-24.39
-28.96
-31.77
-32.56
-30.74
-25.56
-16.28
-2.64
14.79
34.79
56.32
79.57
103.43
129.35
159.68
197.16
243.76
298.99
358.53
414.39
456.89
477.71
473.69
447.29
405.65
357.83
311.3
269.8
233.45
200.5
169.35
140.12
113.4
89.86
69.57
51.91
35.85
20.65
6.2
-6.9
-17.51
-26.45
-34.91
-43.78
-53.19
-62.84
-72.25
-80.75
-87.39
-91.05
-93.99
-98.24
-104.38
-111.42
-118.23
-124.74
-131.76
-140.31
-150.78
-167.73
-193.6
-227.04
-263.32
-297.43
-326.61
-350.59
-370.5
-387.66
-409.34
-440.52
-481.62
-528.76
-577.49
-625.72
-673.77
-722.89
-733.73
-684.65
-580.45
-449.08
-319.27
-204.19
-102.35
-6.63
87.71
179.77
257.51
309.75
332.89
332.72
320.01
304.52
291.75
282.93
276.94
267.56
251.17
228.81
205.23
185.09
170.18
159.54
150.94
142.78
131.65
116.15
97.53
78.88
63.08
51.04
42.08
34.89
28.69
22.05
14.65
7.44
1.91
-0.47
0.53
4.05
8.79
13.72
17.64
19.9
20.41
19.51
17.52
14.44
10.05
4.18
-2.96
-10.98
-19.37
-27.62
-35.37
-42.42
-48.81
-54.71
-60.38
-65.83
-71.11
-76.34
-81.63
-87.06
-92.69
-98.54
-104.62
-110.93
-117.1
-122.86
-127.95
-132.07
-134.84
-135.73
-134.03
-128.8
-121.59
-112.98
-103.46
-93.39
-83.08
-72.69
-62.26
-51.73
-41
-30.04
-18.51
-6.33
6.43
19.59
33.01
46.67
60.78
75.73
91.94
110.09
130.41
152.64
175.99
199.46
222.31
244.61
267.63
293.43
323.94
359.31
396.98
431.9
458.09
470.75
467.87
450.77
423.25
390.39
357.3
328.33
306.82
294.44
290.4
290.54
288.04
275.6
248.85
208.84
162.1
117.94
84.45
65.36
58.91
59.58
61.06
58.77
50.53
35.77
14.43
-13.47
-47.43
-86.04
-126.63
-165.9
-200.76
-229.33
-251.6
-268.74
-282.64
-293
-298.06
-295.72
-285
-266.31
-241.13
-211.97
-181.45
-151.98
-125.29
-102.42
-83.7
-69.13
-58.11
-49.89
-44.41
-41.79
-42.12
-45.15
-50.38
-57.16
-65.26
-74.35
-84.16
-95.4
-108.75
-124.73
-143.4
-164.84
-185.96
-204.81
-219.85
-224.74
-215.75
-192.02
-156.25
-113.43
-68.93
-26.95
9.73
40.01
63.87
81.1
92.08
97.74
99.52
99.16
98.2
97.61
97.9
99.24
100.69
101.67
101.87
101.48
100.99
100.9
101.49
102.6
103.84
103.89
102.16
98.05
91.53
82.94
72.66
61.51
49.94
38.41
26.65
14.98
3.72
-6.77
-16.27
-25.24
-33.66
-42.18
-48.05
-52.41
-56.04
-59.07
-61.13
-61.37
-62.79
-63.44
-61.91
-57.15
-48.94
-36.89
-21.11
-2.24
18.66
39
56.85
69.9
76.34
74.51
63.69
43.6
14.01
-17.69
-47.33
-71.61
-89.26
-100.24
-105.4
-105.66
-101.97
-95.17
-85.99
-76.1
-66.49
-57.92
-50.75
-44.97
-40.35
-36.53
-33.06
-29.53
-26.45
-24.06
-22.57
-22.06
-22.35
-23.26
-24.57
-26.02
-27.37
-28.95
-30.99
-33.68
-37.15
-41.16
-45.63
-50.46
-55.46
-60.46
-65.6
-71.08
-77.06
-83.77
-90.95
-98.57
-106.41
-114.1
-120.98
-126.53
-130.14
-131.21
-130.94
-127.46
-119.3
-105.36
-84.82
-57.46
-23.91
14.21
55.23
95.34
131.57
161.71
184.5
199.87
208.38
210.76
207.39
198.41
184.54
166.21
144.68
122.14
101.51
85.35
75.24
71.16
71.55
74.1
76.26
75.67
69.57
56.19
35.45
9.68
-16.62
-38.1
-50.91
-54.45
-51.16
-46.76
-46.25
-51.33
-59.87
-67.75
-70.83
-67.3
-58.12
-45.43
-31.91
-19.16
-8
0.84
5.99
5.54
-2.35
-18.96
-42.98
-72.04
-102.79
-131.82
-156.5
-175.4
-188.05
-194.46
-195.49
-189.89
-176.52
-154.37
-123.39
-84.71
-40.75
5.43
50.63
90.95
124.8
151.71
172.14
186.81
196.26
200.6
199.9
194.48
185.26
174.24
163.39
154.35
147.9
143.7
140.45
136.76
131.53
124.64
117.12
110.25
105.24
102.95
103.9
108.01
114.33
120.32
121.94
115.03
96.89
68.38
34.17
1.73
-22.85
-36.18
-38.83
-34.37
-26.92
-19.21
-11.69
-3.47
6.01
15.93
24.25
28.71
27.96
22.44
13.56
3.29
-6.98
-17.13
-28.33
-42.14
-59.77
-81.18
-104.23
-126.32
-144.6
-157.22
-163.89
-165.95
-165.68
-165.38
-166.57
-170.6
-177.37
-186.31
-196.02
-203.76
-205.67
-198.05
-179.3
-151.3
-119.44
-90.66
-70.75
-61.98
-62.83
-69.23
-76.94
-83.3
-87.41
-89.28
-88.69
-84.15
-73.85
-56.79
-33.46
-5.85
23.34
51.42
76.68
97.83
115.12
129.09
140.04
147.78
151.82
151.7
147.47
139.8
130.59
120.95
111.99
104.26
97.74
91.97
86.32
80.37
73.99
67.41
61.04
55.26
50.23
45.88
42
38.38
34.88
31.5
28.29
25.27
22.48
19.84
17.35
15.07
13.18
11.85
11.18
11.04
11.13
11.04
10.46
9.37
8.1
7.23
7.32
8.62
10.93
13.56
15.69
16.7
16.53
15.74
15.36
16.36
19.21
23.59
28.4
32.4
34.67
35.06
34.22
33.28
33.35
35.26
39.5
46.17
54.61
62.88
67.66
65.03
52.13
28.91
-1.05
-31.61
-56.4
-71.42
-76.37
-74.09
-68.54
-62.65
-57.36
-52.05
-45.89
-39.01
-32.56
-28.02
-26.06
-26.05
-26.42
-25.37
-21.77
-15.72
-8.51
-1.92
2.51
4.27
4.08
3.59
4.52
8.02
13.94
20.84
26.56
28.87
26.54
19.65
9.5
-2
-13.34
-23.76
-33.54
-43.2
-53.66
-65.21
-77.7
-90.73
-103.6
-114.79
-121.7
-121.24
-110.3
-88.3
-57.95
-24.84
4.57
25.54
36.74
40.18
39.43
37.68
36.04
34.11
31.21
27.54
24.46
23.68
25.99
30.61
35.54
38.53
38.14
34.77
30.22
26.91
26.69
30
35.59
41.19
44.68
44.84
42.12
38.12
34.85
33.93
36.23
41.81
49.91
58.5
64.28
63.17
51.63
28.55
-3.64
-39.18
-71.13
-93.9
-105.3
-107.05
-102.09
-93.25
-81.75
-67.4
-49.74
-29.31
-8.02
11.32
26.4
36.17
40.91
41.64
39.17
33.57
24.32
11.02
-6.23
-25.43
-44.34
-61.06
-72.63
-77.62
-76.33
-70.5
-62.23
-53.53
-45.44
-38.14
-31.36
-24.89
-19.44
-16.53
-18.25
-25.72
-39.02
-56.36
-74.95
-92.04
-105.41
-114.55
-120.27
-124.44
-128.37
-133.11
-138.75
-144.65
-149.07
-148.48
-138.05
-112.97
-71.13
-12.54
54.62
119.51
172.42
207.87
225.74
229.7
227.52
220.44
208.34
190.64
167.77
141.47
114.21
88.11
64.34
42.8
22.44
2.94
-14.62
-28.33
-36.34
-37.71
-33.31
-25.25
-16.78
-11.6
-15.33
-29.15
-51.19
-77.7
-104.72
-129.58
-150.39
-166.54
-178.56
-186.9
-189.54
-184.45
-170.05
-146.05
-113.75
-74.24
-31.74
9.23
44.5
72.08
89.53
94.16
91.37
81.92
68.64
56.08
48.9
49.63
60.37
81.13
111.73
145.99
181.16
217.87
257.85
302.59
337.95
353.42
344.44
314.85
273.43
228.83
187.22
151.15
120.98
96.12
78.24
68.71
66.92
68.96
68.19
57.63
32.91
-5.4
-51.57
-95.22
-127.04
-142.6
-143.5
-135.27
-123.85
-113.09
-103.92
-95.64
-86.57
-76.33
-65.96
-56.97
-50.02
-44.54
-39.2
-32.51
-24.03
-14.01
-3.87
4.35
8.63
7.92
2.37
-6.82
-17.96
-29.55
-40.66
-50.51
-59.83
-69.41
-79.64
-90.17
-99.9
-107.4
-111.48
-111.86
-109.17
-104.92
-100.81
-98.05
-97.38
-99.08
-103.22
-109.33
-115.91
-119.85
-117.26
-104.76
-81.5
-50.31
-17.04
11.5
30.43
38.48
37.93
32.78
26.58
21.13
16.34
11.54
6.2
0.73
-4.14
-7.97
-10.89
-13.49
-16.16
-18.89
-20.87
-21.17
-18.91
-13.67
-5.59
4.84
16.88
29.89
43.27
56.57
68.98
79.63
87.89
93.39
96.45
97.96
99.1
100.39
103.66
110.18
120.26
132.34
142.58
145.66
136.73
113.96
80.23
42.56
9.43
-12.7
-21.99
-21.44
-16.52
-12.16
-10.6
-11.35
-12.62
-13.56
-14.82
-18.4
-26.29
-39.18
-56.29
-76.07
-96.55
-116.8
-135.74
-151.2
-159.89
-158.3
-144.61
-120.24
-90.32
-61.14
-38.58
-25.65
-21.7
-23.8
-28.73
-34.41
-40.24
-46.23
-51.91
-56.23
-57.79
-55.56
-49.54
-40.7
-30.23
-19.16
-7.59
4.95
18.93
33.95
49.65
64.78
77.74
87.07
91.92
92.39
89.45
84.92
79.2
73.01
66.57
59.76
52.32
44.19
35.63
27.35
19.96
13.86
9.65
7.46
7.16
8.44
10.91
13.53
16.56
19.9
23.23
26.6
29.95
33.28
36.5
39.45
41.93
43.78
45.38
45.89
45.25
43.56
41.04
37.86
33.88
28.77
22.36
14.44
5.11
-4.78
-14.12
-22.2
-27.86
-30.97
-32.16
-32.37
-32.3
-32.72
-33.3
-33.12
-31.01
-26.33
-19.43
-11.38
-3.61
2.64
6.73
9.11
10.91
13.67
18.61
26.54
37.77
51.56
65.54
75.56
76.89
64.92
40.18
7.22
-26.5
-53.3
-68.5
-72.08
-67.94
-61.24
-55.64
-51.76
-48.21
-43.25
-36.12
-27.77
-20.18
-15.1
-13.48
-15.42
-20.8
-29.59
-41.13
-53.08
-61.44
-61.24
-49.83
-28.32
-1.7
23.03
39.88
46.25
43.76
36.66
29.41
24.95
24.11
27.18
34.46
45.85
59.7
72.18
78.01
72.52
55.46
30.77
5.58
-13.18
-21.64
-20.17
-12.28
-2.6
5.17
9.66
10.56
8.23
3.06
-4.48
-13.59
-23.13
-32.12
-40.05
-46.79
-52.87
-58.6
-63.76
-67.43
-68.64
-66.62
-61.6
-54.62
-47.33
-41.86
-40.26
-44.21
-54.28
-69.25
-84.4
-94.59
-94.27
-80.37
-54.34
-22
8.74
31.21
42.55
44.25
40.29
34.89
30.32
26.6
22.62
17.72
12.45
8.08
5.64
4.95
4.85
3.8
0.62
-4.84
-11.56
-17.82
-21.99
-23.07
-21.28
-17.52
-12.95
-8.33
-3.97
0.55
6.09
13.44
22.9
33.99
45.71
56.85
66.56
74.07
79.1
81.73
82.17
80.5
76.43
69.45
57.92
42.92
25.46
6.85
-11.31
-27.4
-40.01
-48.27
-52.67
-53.79
-51.93
-47.34
-39.91
-29.22
-14.92
2.97
23.18
43.54
61.61
75.41
83.67
86.37
84.57
80.1
75.25
71.73
70.43
71.19
72.57
71.97
66.62
54.84
35.2
11.91
-9.17
-22.67
-25.61
-18.46
-4.76
10.29
21.76
26.67
24.8
17.96
9.17
1.48
-4.16
-7.95
-10.73
-13.49
-16.42
-18.94
-20.32
-19.95
-18.12
-16.05
-15.12
-15.78
-17.9
-20.39
-22.27
-22.76
-21.09
-17.01
-10.65
-2.43
7.34
17.03
24.39
26.29
20.47
6.43
-13.37
-35.52
-56.6
-73.87
-87.47
-93.36
-90.88
-82.07
-69.82
-56.49
-42.97
-34.15
-28.89
-26.48
-26.51
-29.54
-36.09
-42.5
-46.62
-46.71
-41.25
-28.3
-7.19
21.75
56.33
93.39
129.44
160.73
184.55
199.7
206.99
207.67
203.28
194.8
183.07
169.01
153.12
135.67
116.42
94.91
70.14
41.54
9.5
-24.33
-57.27
-86.63
-110.02
-125.66
-132.33
-129.71
-118.52
-100.61
-78.89
-56.52
-36.14
-18.84
-3.94
10.32
25.46
41.73
57.73
71.05
79.48
82.11
80.04
76.11
73.9
76.49
85.33
99.81
117.46
134.39
146.17
148.74
139.53
118.37
87.85
52.82
19.2
-8
-26.59
-38.21
-47.68
-60.85
-81.93
-111.56
-146.8
-182.15
-211.99
-232.85
-244.39
-248.41
-246.59
-238.49
-221.48
-193.31
-153.59
-105.62
-56.58
-15.75
8.64
12.38
-3.11
-32.25
-69.32
-108.22
-143.48
-170.9
-188.25
-195.38
-194.19
-187.58
-179.91
-178.81
-189.82
-214.6
-250.48
-292.03
-332.54
-365.89
-386.78
-393.25
-389.82
-381.26
-370.55
-358.64
-346.49
-336.11
-331.21
-334.56
-320.06
-272.33
-190.25
-87.22
20.13
120.72
209.91
281.38
340.82
390.67
426.98
446.63
449.86
441.03
421.09
393.65
362.58
332.25
304.88
278.63
252
224.72
197.76
172.03
148.45
127.28
109.46
95.21
82.95
71.54
60.35
49.04
37.15
24.64
11.7
-0.4
-10.43
-18.13
-23.48
-26.92
-29.14
-31.01
-33.11
-36.07
-40.2
-45.79
-52.65
-59.08
-61.9
-57.34
-42.6
-17.5
14.92
49.48
80.85
105.56
122.59
132.61
136.58
135.22
128.55
116.74
101.28
85.12
71.71
63.33
60.03
59.68
59.75
57.29
49.96
36.98
19.71
1.2
-14.93
-25.83
-30.08
-26.91
-17.66
-4.67
10.34
27.54
48.51
74.42
104.74
137.03
168.99
196.93
216.63
224.54
218.91
199.89
169.05
129.02
73.47
5.84
-62.78
-120.36
-161.35
-187.12
-201.72
-208.3
-209.68
-205.67
-194.26
-175.56
-152.15
-127.72
-105.19
-85.77
-69.97
-58.14
-49.9
-43.42
-37.55
-32.09
-27.38
-23.45
-19.9
-16.31
-12.43
-8.1
-2.88
2.89
8.11
11.6
12.79
11.89
9.55
6.54
3.61
1.43
-0.07
-1.57
-3.85
-7.24
-11.41
-15.59
-19
-21.23
-22.35
-23.05
-24.18
-26.3
-29.41
-33.03
-36.52
-39.47
-41.73
-43.51
-45.18
-47.26
-50.28
-54.68
-60.52
-67.19
-73.28
-76.82
-75.83
-69
-56.11
-38.03
-16.27
7.54
32.08
56.25
79.02
99.2
115.34
125.96
129.9
126.5
115.85
98.75
76.73
51.94
26.93
4.14
-14.51
-28.01
-36.36
-40.28
-40.74
-38.58
-34.41
-28.69
-22
-15.01
-8.38
-2.49
2.75
7.84
13.37
19.71
26.77
34.03
40.79
46.39
50.37
52.52
52.8
51.31
48.3
44.23
39.75
35.54
32.2
29.97
28.76
28.17
27.72
27.02
25.92
24.47
22.85
21.2
19.64
18.24
17.08
16.23
15.71
15.39
14.97
14.07
12.38
9.81
6.53
2.88
-0.72
-3.97
-6.71
-8.88
-10.5
-11.57
-12.12
-12.19
-11.87
-11.24
-10.39
-9.34
-8.07
-6.52
-4.6
-2.18
0.88
4.66
9.21
14.37
19.89
25.38
30.39
34.5
37.37
38.76
38.52
36.64
33.23
28.6
23.22
17.68
12.57
8.25
4.74
1.65
-1.68
-5.93
-11.49
-18.3
-25.87
-33.47
-40.4
-46.15
-50.38
-52.92
-53.64
-52.51
-49.62
-45.34
-40.24
-34.98
-30.07
-25.8
-22.24
-19.31
-16.89
-14.89
-13.21
-11.72
-10.27
-8.77
-7.23
-5.69
-4.19
-2.76
-1.44
-0.41
0.05
-0.37
-1.69
-3.53
-5.09
-5.4
-3.79
-0.11
5.15
11.16
17.02
22.1
26.07
28.83
30.33
30.52
29.38
27.05
23.94
20.61
17.7
15.63
14.47
13.89
13.39
12.55
11.23
9.58
7.92
6.46
5.15
3.75
1.98
-0.27
-2.88
-5.58
-8.1
-10.28
-12.05
-13.37
-14.19
-14.43
-14.08
-13.2
-11.92
-10.36
-8.64
-6.86
-5.18
-3.85
-3.07
-2.93
-3.3
-3.86
-4.28
-4.35
-4.12
-3.79
-3.62
-3.75
-4.12
-4.54
-4.8
-4.81
-4.64
-4.52
-4.68
-5.29
-6.33
-7.71
-9.27
-10.85
-12.32
-13.52
-14.3
-14.5
-14.09
-13.17
-12.01
-10.88
-9.96
-9.22
-8.42
-7.37
-6.05
-4.64
-3.48
-2.79
-2.59
-2.65
-2.64
-2.29
-1.52
-0.41
0.93
2.47
4.34
6.69
9.61
12.97
16.53
20.01
23.36
26.8
30.8
35.86
42.25
49.87
58.21
66.49
73.89
79.65
83.18
84.09
82.23
77.82
71.41
63.85
56.09
48.89
42.63
37.3
32.59
28.08
23.39
18.28
12.74
6.97
1.33
-3.82
-8.37
-12.59
-17.09
-22.58
-29.43
-37.56
-46.36
-54.96
-62.54
-68.56
-72.78
-75.2
-75.94
-75.23
-73.37
-70.75
-67.84
-65.06
-62.71
-60.81
-58.88
-55.81
-50.05
-40.01
-24.81
-4.92
17.72
40.15
59.34
73.17
80.97
83.4
81.91
78.14
73.45
68.95
65.48
63.68
63.79
65.5
67.89
69.61
69.26
65.72
58.46
47.59
33.85
18.46
2.95
-11.13
-22.62
-30.95
-36.27
-39.21
-40.56
-40.98
-40.85
-40.4
-39.78
-39.08
-38.27
-37.1
-35.18
-32.13
-27.82
-22.53
-16.89
-11.61
-7.26
-4.17
-2.43
-1.96
-2.53
-3.73
-4.99
-5.73
-5.51
-4.19
-1.91
1.11
4.69
8.84
13.64
19.05
24.77
30.29
35.01
38.45
40.36
40.76
39.84
37.83
35.02
31.75
28.33
25
21.69
17.96
13.02
6.1
-3.16
-14.34
-26.3
-37.56
-46.91
-53.88
-58.77
-62.25
-64.89
-66.78
-67.63
-67.09
-65.08
-61.93
-58.21
-54.5
-51.25
-48.79
-47.53
-47.82
-49.81
-53.16
-56.9
-59.77
-60.52
-58.5
-53.81
-47.19
-39.78
-32.74
-26.99
-22.97
-20.56
-19.07
-17.37
-14.31
-9.07
-1.43
8.16
18.75
29.24
38.57
45.97
50.96
53.38
53.54
52.09
49.93
47.9
46.48
45.61
44.8
43.49
41.37
38.49
35.23
32.03
29.12
26.4
23.51
20.06
15.85
11.04
6.06
1.38
-2.73
-6.35
-9.82
-13.54
-17.78
-22.7
-28.39
-35.08
-43.11
-52.76
-64
-76.32
-88.71
-99.99
-109.08
-115.22
-118
-117.27
-113.11
-105.87
-96.15
-84.92
-73.35
-62.71
-54.11
-48.44
-46.22
-47.7
-52.74
-60.77
-70.61
-80.4
-87.69
-89.93
-85.28
-73.39
-55.74
-35.35
-15.72
0.34
11.55
18.27
21.79
23.48
24.19
24.17
23.53
22.65
22.26
23.13
25.55
29.09
32.74
35.54
37.07
37.74
38.5
40.23
43.1
46.43
48.92
49.39
47.44
43.69
39.6
36.73
36.12
37.9
41.34
45.28
48.59
50.57
51
50.17
48.67
47.16
46.21
46.05
46.56
47.33
47.82
47.6
46.41
44.15
40.79
36.27
30.57
23.81
16.31
8.64
1.37
-5.03
-10.35
-14.61
-17.99
-20.63
-22.51
-23.41
-22.89
-20.41
-15.54
-8.15
1.32
11.78
21.71
29.42
33.6
33.71
30.1
23.89
16.63
9.8
4.45
1.05
-0.52
-0.75
-0.35
-0.09
-0.56
-2.14
-4.79
-8.09
-11.35
-13.93
-15.54
-16.3
-16.66
-16.97
-17.1
-16.34
-13.54
-7.68
1.57
13.58
26.84
39.37
49.28
55.31
57.04
54.87
49.72
42.66
34.57
26.03
17.45
9.24
2.05
-3.41
-6.68
-7.92
-8.02
-8.36
-10.32
-14.65
-21.2
-28.9
-36.04
-40.71
-41.24
-36.64
-26.98
-13.59
1.1
14.18
23.27
27.39
27.43
25.67
24.67
26.08
29.97
35
39.22
41.14
40.23
36.82
31.64
25.22
17.74
9.19
-0.33
-10.42
-20.4
-29.57
-37.34
-43.43
-47.73
-50.27
-51.16
-50.47
-48.17
-44.12
-38.2
-30.63
-22.19
-14.17
-7.96
-4.44
-3.46
-3.89
-4.06
-2.64
0.82
5.78
11.1
15.74
19.14
21.31
22.5
22.91
22.52
21.32
19.51
17.63
16.44
16.56
18.14
20.65
23.12
24.5
24.09
21.77
17.93
13.29
8.57
4.25
0.54
-2.67
-5.64
-8.68
-11.99
-15.58
-19.23
-22.47
-24.83
-25.93
-25.65
-24.17
-21.93
-19.5
-17.37
-15.87
-15.07
-14.77
-14.57
-14.06
-12.98
-11.31
-9.29
-7.33
-5.82
-5.03
-5.01
-5.57
-6.36
-6.94
-6.85
-5.82
-3.81
-1.1
1.76
4.17
5.7
6.27
6.2
6.04
6.31
7.22
8.56
9.81
10.4
9.96
8.49
6.38
4.18
2.37
1.19
0.67
0.76
1.37
2.48
3.94
5.46
6.57
6.78
5.78
3.65
0.78
-2.27
-5.02
-7.25
-8.96
-10.24
-11.16
-11.67
-11.7
-11.21
-10.25
-8.97
-7.54
-6.09
-4.73
-3.54
-2.65
-2.2
-2.26
-2.78
-3.58
-4.4
-5
-5.23
-5.08
-4.61
-3.87
-2.89
-1.69
-0.37
0.89
1.83
2.23
1.98
1.18
0.05
-1.08
-1.95
-2.36
-2.22
-1.54
-0.42
0.94
2.31
3.44
4.22
4.7
5.03
5.39
5.87
6.41
6.89
7.15
7.14
6.86
6.35
5.64
4.74
3.67
2.53
1.48
0.76
0.51
0.75
1.31
1.93
2.31
2.22
1.57
0.37
-1.23
-3.04
-4.8
-6.24
-7.1
-7.2
-6.49
-5.06
-3.16
-1.12
0.8
2.4
3.62
4.48
5.07
5.46
5.74
5.95
6.12
6.28
6.42
6.57
6.69
6.74
6.63
6.31
5.77
5.11
4.48
4.02
3.72
3.41
2.86
1.86
0.38
-1.41
-3.23
-4.81
-5.93
-6.56
-6.68
-6.33
-5.53
-4.32
-2.86
-1.38
-0.13
0.68
0.99
0.88
0.58
0.32
0.27
0.52
1.01
1.63
2.23
2.72
3.04
3.2
3.24
3.21
3.15
3.06
2.91
2.66
2.28
1.77
1.19
0.6
0.04
-0.51
-1.12
-1.88
-2.82
-3.87
-4.79
-5.32
-5.23
-4.42
-3
-1.22
0.63
2.26
3.49
4.23
4.52
4.45
4.18
3.92
3.83
4
4.4
4.88
5.23
5.31
5.09
4.69
4.32
4.16
4.2
4.32
4.29
3.92
3.15
2.09
0.93
-0.16
-1.08
-1.87
-2.54
-3.12
-3.53
-3.61
-3.27
-2.45
-1.28
0.08
1.4
2.57
3.55
4.36
5.02
5.46
5.59
5.33
4.71
3.86
3.02
2.36
2.02
2
2.2
2.46
2.65
2.68
2.47
2.02
1.34
0.49
-0.43
-1.37
-2.25
-3.07
-3.8
-4.43
-4.88
-5.09
-4.99
-4.52
-3.67
-2.53
-1.23
0.03
1.13
2
2.64
3.07
3.28
