Blood Volume pulse
64
0
0
0
0
0
0
0
0
0
0
0
0.01
0.01
0
-0.03
-0.05
-0.05
0
0.13
0.36
0.66
1.01
1.37
1.72
2.06
2.4
2.79
3.24
3.8
4.42
5.06
5.66
6.2
6.68
7.15
7.68
8.31
9.14
10.09
11.04
11.88
12.56
13.14
13.76
14.65
15.96
17.91
20.32
22.9
25.38
27.58
29.57
31.68
34.32
37.81
42.54
48.15
54.1
59.83
64.97
69.58
74.14
79.34
85.71
93.76
103
112.62
121.73
129.77
136.75
143.3
150.75
157.77
166.64
177.95
191.79
206.97
220.57
228.25
225.36
208.53
176.87
132.76
80.05
23.07
-34.94
-92.44
-149.16
-205.23
-260.37
-313.74
-363.87
-409.83
-450.91
-486.5
-515.74
-537.23
-549.22
-549.96
-538.37
-514.21
-478.67
-433.88
-382.45
-327.02
-269.84
-212.63
-156.66
-102.95
-52.37
-5.9
35.58
71.43
101.35
125.5
144.38
158.69
169.15
176.37
180.75
182.57
182.07
179.51
175.23
169.65
163.18
156.15
148.81
141.3
133.69
126.02
118.33
110.69
103.16
95.8
88.68
81.83
75.25
68.95
62.95
57.25
51.86
46.78
42.03
37.59
33.45
29.61
26.07
22.81
19.83
17.11
14.67
12.48
10.54
8.83
7.35
6.07
4.97
4.05
3.27
2.62
2.09
1.65
1.3
1.01
0.79
0.61
0.48
0.37
0.3
0.24
0.21
0.19
0.18
0.19
0.2
0.23
0.26
0.29
0.33
0.37
0.42
0.46
0.51
0.56
0.61
0.66
0.72
0.78
0.84
0.91
0.99
1.08
1.17
1.28
1.4
1.53
1.68
1.85
2.04
2.25
2.48
2.74
3.03
3.34
3.68
4.06
4.47
4.92
5.4
5.92
6.48
7.08
7.73
8.41
9.15
9.92
10.74
11.61
12.52
13.49
14.5
15.58
16.72
17.93
19.18
20.48
21.75
22.96
23.99
24.75
25.11
24.93
24.13
22.61
20.36
17.38
13.75
9.6
5.12
0.5
-4.02
-8.24
-11.96
-15.05
-17.41
-19
-19.81
-19.94
-19.48
-18.52
-17.17
-15.56
-13.76
-11.83
-9.82
-7.72
-5.6
-3.46
-1.3
0.86
3.05
5.23
7.4
9.55
11.75
13.94
16.13
18.37
20.7
23.14
25.69
28.35
31.15
34.23
37.44
40.78
44.31
48.07
52.05
56.22
60.51
64.93
69.67
74.49
79.42
84.58
90.03
95.69
101.33
106.68
111.56
116.12
120.04
123.43
126.48
129.12
130.82
130.49
126.53
116.8
103.87
88.78
72.64
56.52
41.03
26.13
11.15
-4.89
-22.7
-42.23
-63.24
-84.76
-105.62
-125.06
-143.09
-160.37
-178
-197.19
-219.09
-245.03
-275.21
-307.99
-339.46
-363.91
-375.29
-369.35
-345.39
-306.45
-258.58
-208.11
-159.72
-115.64
-76.2
-41.13
-10.64
14.41
33.23
45.7
52.96
56.99
59.73
62.39
65.17
67.49
68.61
68.14
66.24
63.49
60.61
58.01
55.61
52.84
48.92
43.2
35.5
26.24
16.23
6.41
-2.6
-10.8
-18.82
-27.6
-37.93
-49.84
-62.33
-73.46
-80.91
-82.69
-77.82
-66.57
-50.29
-30.77
-9.69
11.79
32.95
53.25
71.91
87.86
99.97
107.48
110.41
109.54
106.23
101.8
97.13
92.45
87.52
81.98
75.76
69.19
62.84
57.15
52.11
47.23
41.73
34.9
26.55
17.04
7.2
-2.13
-10.35
-17.45
-23.86
-30.37
-37.73
-46.5
-56.82
-68.32
-80.06
-90.55
-97.99
-100.61
-97.17
-87.38
-71.96
-52.5
-30.92
-8.97
12.18
31.93
49.94
65.83
78.97
88.53
93.91
95.07
92.76
88.41
83.66
79.93
77.96
77.72
78.53
79.42
79.54
78.49
76.53
74.6
74.08
76.14
81.19
88.21
94.66
96.88
90.98
74.14
45.69
7.85
-34.34
-73.99
-104.05
-119.19
-117.13
-99.1
-69.23
-33.38
2.23
32
51.63
58.52
52.08
33.97
7.85
-21.52
-49.72
-74.07
-94.26
-111.86
-129.04
-146.98
-165.1
-181.17
-192.41
-196.61
-193
-182.28
-165.99
-145.68
-122.54
-97.41
-71.22
-45.38
-21.69
-1.78
13.57
24.73
33.02
39.85
45.97
51.06
53.87
53
47.68
38.35
26.6
14.77
5.16
-0.57
-1.79
1.14
7.26
15.54
25.25
36.16
48.31
61.69
75.85
89.86
102.52
112.7
119.67
123.19
123.49
121.12
116.81
111.43
105.83
100.73
96.57
93.29
90.5
87.52
83.69
78.64
72.34
65.05
57.18
49.08
40.92
32.65
24.05
14.8
4.71
-6.2
-17.71
-29.48
-41.14
-52.29
-62.35
-70.38
-75.16
-75.41
-70.39
-60.25
-46.1
-29.71
-12.81
3.32
18.08
31.17
42.29
50.76
55.76
56.7
53.71
47.7
40.04
32.02
24.35
17.09
9.81
2.09
-6.22
-15.05
-24.31
-34.21
-45.32
-58.3
-73.49
-90.47
-108.12
-124.95
-139.64
-151.54
-160.81
-168.16
-174.54
-180.71
-187.02
-193.4
-199.21
-203.36
-204.45
-201.01
-192.01
-177.27
-157.59
-134.6
-110.14
-85.76
-62.4
-40.55
-20.72
-3.72
9.34
17.6
21.01
20.62
18.33
16.12
15.35
16.36
18.6
21.22
23.68
26.06
28.94
32.86
37.81
43.12
47.7
50.57
51.36
50.42
48.52
46.25
43.64
40.04
34.39
25.86
14.23
0.18
-14.92
-29.27
-40.99
-48.51
-50.64
-46.88
-37.44
-23.29
-5.87
13.12
32.12
49.95
65.79
79.1
89.46
96.54
100.2
100.58
98.19
93.82
88.3
82.4
76.64
71.28
66.44
62.06
57.99
53.93
49.49
44.32
38.25
31.29
23.71
15.86
8.06
0.57
-6.53
-13.29
-20
-27.13
-35.24
-44.76
-55.64
-67.11
-77.65
-85.36
-88.46
-85.86
-77.43
-64.01
-47.04
-28.04
-8.33
11.18
29.85
47.14
62.41
74.94
84.07
89.4
91.03
89.54
85.83
80.86
75.41
69.94
64.58
59.31
54.12
49.03
44.08
39.22
34.25
28.83
22.65
15.55
7.69
-0.51
-8.57
-16.15
-23.21
-30.14
-37.56
-46.13
-56.26
-67.83
-80.05
-91.52
-100.5
-105.24
-104.48
-97.74
-85.44
-68.71
-49.05
-27.97
-6.68
13.89
33.07
50.21
64.65
75.76
83.07
86.55
86.62
84.09
79.99
75.21
70.34
65.66
61.17
56.79
52.5
48.26
44.03
39.65
34.82
29.22
22.63
15.11
6.94
-1.45
-9.59
-17.2
-24.29
-31.11
-38.18
-46.06
-55.12
-65.36
-76.21
-86.48
-94.61
-98.91
-98.14
-91.86
-80.5
-65.23
-47.52
-28.65
-9.49
9.39
27.51
44.16
58.4
69.28
76.16
79.05
78.62
75.98
72.27
68.32
64.51
60.79
56.96
52.9
48.7
44.57
40.7
37.07
33.36
29.03
23.67
17.16
9.78
2.17
-5.03
-11.44
-17.14
-22.58
-28.45
-35.36
-43.67
-53.41
-64.2
-75.31
-85.64
-93.78
-98.22
-97.67
-91.45
-79.75
-63.68
-44.88
-25.14
-5.9
11.95
27.96
41.84
53.19
61.54
66.5
68.07
66.72
63.39
59.1
54.7
50.63
46.97
43.61
40.44
37.51
34.88
32.56
30.34
27.82
24.51
20.03
14.27
7.45
0.09
-7.2
-13.89
-19.76
-25
-30.16
-36
-43.23
-52.22
-62.65
-73.45
-82.89
-88.97
-90.06
-85.31
-75
-60.38
-43.2
-25.19
-7.58
8.94
23.97
37.03
47.45
54.5
57.76
57.5
54.69
50.73
46.83
43.65
41.11
38.76
36.2
33.41
30.72
28.54
26.94
25.53
23.55
20.25
15.33
9.01
1.96
-5.03
-11.4
-16.99
-22.04
-27.07
-32.74
-39.61
-48.02
-57.89
-68.52
-78.57
-86.25
-89.71
-87.63
-79.61
-66.31
-49.26
-30.35
-11.29
6.69
22.93
37.16
49.18
58.66
65.21
68.56
68.78
66.38
62.21
57.2
52.1
47.31
42.95
38.98
35.4
32.22
29.43
26.84
24.04
20.55
15.97
10.22
3.51
-3.71
-10.9
-17.69
-23.95
-29.81
-35.68
-42.08
-49.59
-58.56
-68.88
-79.77
-89.75
-96.93
-99.46
-96.19
-86.97
-72.73
-55.1
-35.88
-16.58
1.8
18.66
33.59
46.15
55.88
62.42
65.74
66.23
64.6
61.65
58.05
54.14
50.02
45.63
41.06
36.57
32.49
29.06
26.12
23.15
19.44
14.38
7.86
0.31
-7.48
-14.74
-21.13
-26.81
-32.35
-38.42
-45.56
-54.03
-63.76
-74.32
-84.83
-93.97
-100.09
-101.56
-97.31
-87.2
-72.16
-53.84
-34.12
-14.52
4.08
21.31
36.98
50.75
62.02
70.13
74.69
75.79
74.1
70.6
66.24
61.65
57.12
52.6
48.06
43.48
38.96
34.61
30.38
26.06
21.28
15.72
9.19
1.8
-6.08
-13.96
-21.28
-27.73
-33.33
-38.5
-44
-50.68
-59.19
-69.53
-80.85
-91.52
-99.38
-102.43
-99.41
-90.19
-75.72
-57.63
-37.63
-17.04
3.36
23.17
42
59.24
74.04
85.54
93.18
96.96
97.46
95.53
92.1
87.77
82.8
77.11
70.53
62.98
54.48
45.17
35.16
24.48
13.06
0.81
-12.28
-26.02
-39.97
-53.49
-65.85
-76.47
-85.09
-91.95
-97.71
-103.26
-109.37
-116.45
-124.26
-131.87
-137.88
-140.7
-138.93
-131.8
-119.33
-102.34
-82.19
-60.45
-38.43
-17.04
3.24
22.19
39.5
54.68
67
75.81
80.75
82.05
80.45
77.01
72.75
68.28
63.82
59.31
54.81
50.6
47.16
44.83
43.5
42.45
40.58
36.86
30.77
22.6
13.28
3.91
-4.66
-12.19
-19.05
-25.93
-33.55
-42.41
-52.58
-63.76
-75.23
-85.94
-94.56
-99.61
-99.81
-94.45
-83.57
-67.97
-48.99
-28.08
-6.55
14.76
35.32
54.81
72.73
88.39
101.12
110.43
116.19
118.64
118.61
117.31
116.26
116.52
118.61
122.51
127.67
133.23
138.23
142.11
144.49
145.22
143.76
139.57
132.77
124.26
115.58
108.02
102.2
97.04
90.22
78.35
58.81
31.44
-1.31
-35.08
-65.46
-89.11
-105.23
-110.86
-104.64
-89
-69.52
-51.37
-36.31
-25.91
-17.72
-9.98
-1.9
6.17
13.63
22.82
35.62
53.73
77.79
107.42
140.3
172.72
199.98
217.89
224.48
220.35
208.52
192.83
176.63
161.23
145.96
128.5
106.08
76.82
40.3
-1.87
-46.31
-88.22
-122.75
-146.14
-157.19
-157.75
-152.09
-145.67
-143.21
-147.4
-158.21
-173.42
-189.36
-202.18
-208.69
-207.13
-197.43
-181.11
-160.73
-139.11
-118.62
-100.78
-86.21
-74.86
-66.37
-60.29
-56.1
-53.3
-51.47
-50.39
-49.94
-50.04
-50.34
-50.31
-49.25
-46.71
-42.79
-38.26
-34.36
-32.49
-33.66
-38.24
-45.89
-55.81
-67.14
-79.28
-92.08
-105.8
-120.83
-137.42
-155.4
-174.01
-191.83
-206.73
-216.15
-217.6
-209.32
-190.97
-163.89
-130.87
-95.34
-60.51
-28.57
-0.57
23.3
43.28
59.55
72.18
81.29
87.17
90.39
91.55
91.12
89.26
85.92
81.15
75.33
69.22
63.9
60.24
58.59
58.66
59.54
60.08
59.21
56.18
50.7
42.98
33.84
24.7
17.39
13.66
14.49
19.43
26.62
33.33
37.2
37.53
35.78
35.11
39.23
51.24
72.73
103.51
141.47
182.7
221.8
252.61
269.61
269.63
253.02
223.73
187.93
151.85
119.68
92.64
69.33
47.11
23.6
-2.41
-30.83
-60.65
-90.48
-118.81
-144.08
-164.75
-179.65
-188.73
-193.81
-198.79
-208.71
-227.38
-255.13
-287.57
-316.99
-335.74
-339.97
-331.34
-315.61
-298.96
-284.3
-269.68
-249.85
-219.75
-177.66
-126.27
-71.18
-18.13
29.31
70.25
105.44
135.65
160.61
179.22
190.3
193.57
190.01
181.76
171.33
160.82
151.25
142.46
133.43
122.96
110.19
95.03
78.29
61.42
46.01
33.39
23.95
17.12
11.39
4.8
-4.42
-17.38
-34.27
-54.33
-75.99
-97.04
-114.85
-126.76
-130.54
-125.14
-111.1
-90.5
-66.49
-42.24
-20.08
-0.98
15.27
29.58
42.79
55.29
66.8
76.6
83.84
87.78
88.08
84.91
78.99
71.44
63.66
56.93
52.24
50.01
49.99
51.29
52.5
52.05
48.79
42.38
33.54
23.77
14.8
7.64
2.11
-3.27
-10.54
-21.51
-36.72
-55.09
-74.16
-90.75
-101.93
-105.68
-101.28
-89.3
-71.34
-49.52
-26.02
-2.59
19.72
40.41
59.27
76.06
90.39
101.74
109.74
114.3
115.52
113.57
108.6
100.85
90.88
79.75
68.86
59.47
52.18
46.65
41.82
36.56
30.2
22.88
15.35
8.56
3.2
-0.58
-3.21
-5.57
-8.71
-13.5
-20.38
-29.1
-38.7
-47.67
-54.2
-56.57
-53.38
-43.84
-28.04
-7.02
17.45
43.31
68.8
92.9
115.3
135.97
154.66
170.66
182.99
190.92
194.64
195.38
195.08
195.57
197.74
201.18
204.39
205.45
202.75
195.47
183.56
167.46
147.73
124.91
99.61
72.67
45.26
18.7
-5.87
-27.83
-47.27
-64.84
-81.46
-97.94
